Time,Amplitude
0.0,0.2
0.001,0.19984211458893175
0.002,0.19936879735873178
0.003,0.1985810644998528
0.004,0.19748060693655473
0.005,0.1960697862443109
0.006,0.1943516289484557
0.007,0.19232981921830794
0.008,0.19000868997501175
0.009000000000000001,0.18739321243529483
0.01,0.18448898411724945
0.011,0.18130221533807778
0.012,0.17783971423750705
0.013000000000000001,0.17410887036425796
0.014,0.1701176368665322
0.015,0.1658745113309663
0.016,0.16138851531786755
0.017,0.1566691726437952
0.018000000000000002,0.15172648646567055
0.019,0.14657091522358123
0.02,0.14121334750228604
0.021,0.1356650758741127
0.022,0.12993776978847243
0.023,0.12404344757558046
0.024,0.11799444763416783
0.025,0.1118033988749895
0.026000000000000002,0.10548319049377321
0.027,0.09904694114890783
0.028,0.09250796762063318
0.029,0.08587975302976637
0.03,0.07917591469507251
0.031,0.07241017170926382
0.032,0.06559631231428704
0.033,0.05874816115702812
0.034,0.05187954650683184
0.035,0.045004267516296485
0.036000000000000004,0.03813606160666094
0.037,0.03128857205875429
0.038,0.024475315889928108
0.039,0.017709652096638703
0.04,0.011004750341392387
0.041,0.004373560161617378
0.042,-0.0021712192233214953
0.043000000000000003,-0.008617168432285556
0.044,-0.0149521766967486
0.045,-0.021164469818361717
0.046,-0.027242637240736167
0.047,-0.03317565816874843
0.048,-0.03895292667109313
0.049,-0.04456427570440367
0.05,-0.049999999999999996
0.051000000000000004,-0.05525087775721656
0.052000000000000005,-0.06030819109029388
0.053,-0.06516374517898198
0.054,-0.0698098860762941
0.055,-0.07423951713025266
0.056,-0.07844611397998605
0.057,-0.08242373809014479
0.058,-0.08616704879130957
0.059000000000000004,-0.08967131379784624
0.06,-0.09293241817851643
0.061,-0.09594687175906794
0.062,-0.09871181493999472
0.063,-0.10122502291666527
0.064,-0.10348490829305486
0.065,-0.10549052208437913
0.066,-0.10724155310799487
0.067,-0.1087383257660059
0.068,-0.1099817962270724
0.069,-0.11097354701896281
0.07,-0.1117157800473976
0.07100000000000001,-0.11221130806070505
0.07200000000000001,-0.11246354458372693
0.073,-0.11247649234827323
0.074,-0.1122547302512118
0.075,-0.1118033988749895
0.076,-0.11112818460900102
0.077,-0.1102353024137433
0.078,-0.10913147727310865
0.079,-0.10782392438346872
0.08,-0.10632032813137623
0.081,-0.10462881991475512
0.082,-0.10275795486535205
0.083,-0.10071668753297983
0.084,-0.09851434659468392
0.085,-0.0961606086544069
0.08600000000000001,-0.09366547120099891
0.08700000000000001,-0.09103922479452539
0.088,-0.08829242455274955
0.089,-0.08543586101140593
0.09,-0.08248053043344145
0.091,-0.07943760464375949
0.092,-0.07631840046717676
0.093,-0.07313434884827398
0.094,-0.06989696373259328
0.095,-0.06661781078920985
0.096,-0.06330847605507005
0.097,-0.059980534581656406
0.098,-0.05664551916449688
0.099,-0.05331488923579382
0.1,-0.05000000000000002
0.101,-0.04671207189151765
0.10200000000000001,-0.043462160432847924
0.10300000000000001,-0.040261126570465954
0.10400000000000001,-0.03711960756445434
0.105,-0.03404798850648674
0.106,-0.031056374539127726
0.107,-0.02815456384760367
0.108,-0.02535202149320394
0.109,-0.022657854155306537
0.11,-0.02008078584668402
0.111,-0.01762913466424261
0.112,-0.015310790634690916
0.113,-0.01313319471182156
0.114,-0.011103318979139382
0.115,-0.009227648108476746
0.116,-0.007512162122020605
0.117,-0.005962320501837662
0.11800000000000001,-0.0045830476875331205
0.11900000000000001,-0.003378719999127089
0.12,-0.0023531540185846717
0.121,-0.0015095964597053313
0.122,-0.0008507155522700094
0.123,-0.00037859396247172383
0.124,-9.472326772824724e-05
0.125,0.0
0.126,-9.472326772824724e-05
0.127,-0.00037859396247172383
0.128,-0.0008507155522700094
0.129,-0.0015095964597053313
0.13,-0.0023531540185846855
0.131,-0.0033787199991271027
0.132,-0.004583047687533134
0.133,-0.005962320501837676
0.134,-0.007512162122020605
0.135,-0.00922764810847676
0.136,-0.01110331897913941
0.137,-0.013133194711821575
0.138,-0.015310790634690902
0.139,-0.017629134664242638
0.14,-0.02008078584668402
0.14100000000000001,-0.022657854155306564
0.14200000000000002,-0.02535202149320398
0.14300000000000002,-0.02815456384760369
0.14400000000000002,-0.031056374539127747
0.145,-0.03404798850648666
0.146,-0.03711960756445431
0.147,-0.040261126570465926
0.148,-0.04346216043284789
0.149,-0.04671207189151764
0.15,-0.04999999999999998
0.151,-0.053314889235793805
0.152,-0.056645519164496866
0.153,-0.05998053458165638
0.154,-0.06330847605507002
0.155,-0.06661781078920984
0.156,-0.06989696373259326
0.157,-0.07313434884827395
0.158,-0.07631840046717672
0.159,-0.07943760464375944
0.16,-0.08248053043344146
0.161,-0.08543586101140585
0.162,-0.08829242455274947
0.163,-0.09103922479452542
0.164,-0.09366547120099893
0.165,-0.09616060865440697
0.166,-0.09851434659468389
0.167,-0.1007166875329798
0.168,-0.10275795486535208
0.169,-0.10462881991475514
0.17,-0.10632032813137626
0.171,-0.10782392438346872
0.17200000000000001,-0.10913147727310867
0.17300000000000001,-0.1102353024137433
0.17400000000000002,-0.11112818460900102
0.17500000000000002,-0.11180339887498948
0.176,-0.11225473025121178
0.177,-0.11247649234827323
0.178,-0.11246354458372693
0.179,-0.11221130806070505
0.18,-0.11171578004739761
0.181,-0.11097354701896284
0.182,-0.10998179622707242
0.183,-0.1087383257660059
0.184,-0.10724155310799487
0.185,-0.10549052208437912
0.186,-0.1034849082930549
0.187,-0.10122502291666528
0.188,-0.09871181493999474
0.189,-0.09594687175906794
0.19,-0.09293241817851652
0.191,-0.08967131379784626
0.192,-0.08616704879130957
0.193,-0.08242373809014478
0.194,-0.07844611397998602
0.195,-0.07423951713025276
0.196,-0.06980988607629413
0.197,-0.06516374517898199
0.198,-0.06030819109029378
0.199,-0.05525087775721647
0.2,-0.050000000000000044
0.201,-0.04456427570440368
0.202,-0.03895292667109309
0.203,-0.03317565816874832
0.20400000000000001,-0.027242637240736237
0.20500000000000002,-0.021164469818361717
0.20600000000000002,-0.014952176696748622
0.20700000000000002,-0.008617168432285438
0.20800000000000002,-0.0021712192233213287
0.209,0.004373560161617371
0.21,0.0110047503413922
0.211,0.017709652096638558
0.212,0.02447531588992801
0.213,0.03128857205875425
0.214,0.038136061606661
0.215,0.04500426751629635
0.216,0.05187954650683175
0.217,0.05874816115702809
0.218,0.06559631231428707
0.219,0.07241017170926364
0.22,0.07917591469507237
0.221,0.08587975302976633
0.222,0.09250796762063317
0.223,0.09904694114890787
0.224,0.10548319049377312
0.225,0.11180339887498944
0.226,0.11799444763416782
0.227,0.1240434475755805
0.228,0.12993776978847252
0.229,0.13566507587411264
0.23,0.14121334750228604
0.231,0.14657091522358123
0.232,0.15172648646567063
0.233,0.15666917264379515
0.234,0.16138851531786752
0.23500000000000001,0.1658745113309663
0.23600000000000002,0.17011763686653225
0.23700000000000002,0.17410887036425807
0.23800000000000002,0.17783971423750705
0.23900000000000002,0.18130221533807778
0.24,0.1844889841172494
0.241,0.18739321243529478
0.242,0.19000868997501172
0.243,0.19232981921830794
0.244,0.19435162894845565
0.245,0.19606978624431087
0.246,0.19748060693655473
0.247,0.1985810644998528
0.248,0.19936879735873175
0.249,0.19984211458893175
0.25,0.2
0.251,0.19984211458893175
0.252,0.19936879735873178
0.253,0.19858106449985283
0.254,0.19748060693655473
0.255,0.19606978624431093
0.256,0.1943516289484557
0.257,0.192329819218308
0.258,0.19000868997501175
0.259,0.18739321243529483
0.26,0.18448898411724945
0.261,0.18130221533807775
0.262,0.1778397142375071
0.263,0.17410887036425798
0.264,0.1701176368665322
0.265,0.16587451133096626
0.266,0.16138851531786746
0.267,0.15666917264379526
0.268,0.15172648646567055
0.269,0.14657091522358118
0.27,0.14121334750228592
0.271,0.13566507587411275
0.272,0.1299377697884724
0.273,0.1240434475755804
0.274,0.11799444763416772
0.275,0.11180339887498934
0.276,0.10548319049377325
0.277,0.09904694114890777
0.278,0.09250796762063307
0.279,0.08587975302976623
0.28,0.07917591469507229
0.281,0.07241017170926377
0.28200000000000003,0.06559631231428695
0.28300000000000003,0.058748161157027974
0.28400000000000003,0.05187954650683163
0.28500000000000003,0.04500426751629649
0.28600000000000003,0.03813606160666089
0.28700000000000003,0.03128857205875414
0.28800000000000003,0.024475315889927893
0.289,0.01770965209663892
0.29,0.01100475034139256
0.291,0.00437356016161751
0.292,-0.002171219223321204
0.293,-0.00861716843228532
0.294,-0.014952176696748497
0.295,-0.021164469818361592
0.296,-0.027242637240736105
0.297,-0.03317565816874821
0.298,-0.03895292667109299
0.299,-0.044564275704403564
0.3,-0.04999999999999994
0.301,-0.05525087775721636
0.302,-0.0603081910902937
0.303,-0.06516374517898188
0.304,-0.06980988607629406
0.305,-0.07423951713025266
0.306,-0.07844611397998595
0.307,-0.0824237380901447
0.308,-0.0861670487913095
0.309,-0.08967131379784621
0.31,-0.09293241817851647
0.311,-0.09594687175906788
0.312,-0.0987118149399947
0.313,-0.10122502291666524
0.314,-0.10348490829305486
0.315,-0.10549052208437908
0.316,-0.10724155310799482
0.317,-0.10873832576600588
0.318,-0.1099817962270724
0.319,-0.1109735470189628
0.32,-0.11171578004739763
0.321,-0.11221130806070505
0.322,-0.11246354458372693
0.323,-0.11247649234827324
0.324,-0.1122547302512118
0.325,-0.1118033988749895
0.326,-0.11112818460900102
0.327,-0.11023530241374327
0.328,-0.10913147727310864
0.329,-0.10782392438346869
0.33,-0.1063203281313762
0.331,-0.10462881991475506
0.332,-0.10275795486535211
0.333,-0.10071668753297984
0.334,-0.09851434659468393
0.335,-0.09616060865440693
0.336,-0.09366547120099888
0.337,-0.09103922479452539
0.338,-0.08829242455274942
0.339,-0.0854358610114058
0.34,-0.08248053043344131
0.341,-0.07943760464375951
0.342,-0.0763184004671768
0.343,-0.07313434884827397
0.34400000000000003,-0.06989696373259326
0.34500000000000003,-0.06661781078920977
0.34600000000000003,-0.06330847605506996
0.34700000000000003,-0.05998053458165632
0.34800000000000003,-0.05664551916449674
0.34900000000000003,-0.05331488923579368
0.35000000000000003,-0.050000000000000044
0.35100000000000003,-0.046712071891517694
0.352,-0.043462160432848125
0.353,-0.04026112657046615
0.354,-0.03711960756445454
0.355,-0.034047988506486826
0.356,-0.031056374539127796
0.357,-0.02815456384760375
0.358,-0.025352021493203994
0.359,-0.022657854155306564
0.36,-0.02008078584668399
0.361,-0.01762913466424261
0.362,-0.015310790634691027
0.363,-0.013133194711821644
0.364,-0.011103318979139479
0.365,-0.009227648108476816
0.366,-0.0075121621220206325
0.367,-0.005962320501837676
0.368,-0.004583047687533134
0.369,-0.0033787199991271027
0.37,-0.0023531540185846578
0.371,-0.001509596459705373
0.372,-0.0008507155522700094
0.373,-0.0003785939624717516
0.374,-9.472326772824724e-05
0.375,0.0
0.376,-9.472326772824724e-05
0.377,-0.00037859396247172383
0.378,-0.0008507155522700094
0.379,-0.0015095964597053452
0.38,-0.002353154018584644
0.381,-0.003378719999127061
0.382,-0.004583047687533093
0.383,-0.00596232050183762
0.384,-0.007512162122020605
0.385,-0.009227648108476746
0.386,-0.011103318979139423
0.387,-0.013133194711821589
0.388,-0.015310790634690943
0.389,-0.01762913466424254
0.39,-0.02008078584668392
0.391,-0.02265785415530648
0.392,-0.025352021493203897
0.393,-0.028154563847603654
0.394,-0.031056374539127712
0.395,-0.034047988506486736
0.396,-0.03711960756445444
0.397,-0.040261126570466065
0.398,-0.043462160432848035
0.399,-0.0467120718915176
0.4,-0.04999999999999995
0.401,-0.05331488923579381
0.402,-0.056645519164496894
0.403,-0.05998053458165646
0.404,-0.0633084760550701
0.405,-0.0666178107892099
0.406,-0.06989696373259338
0.40700000000000003,-0.07313434884827409
0.40800000000000003,-0.07631840046717671
0.40900000000000003,-0.07943760464375943
0.41000000000000003,-0.08248053043344145
0.41100000000000003,-0.08543586101140593
0.41200000000000003,-0.08829242455274955
0.41300000000000003,-0.09103922479452549
0.41400000000000003,-0.093665471200999
0.41500000000000004,-0.09616060865440704
0.41600000000000004,-0.09851434659468403
0.417,-0.10071668753297977
0.418,-0.10275795486535205
0.419,-0.104628819914755
0.42,-0.10632032813137615
0.421,-0.10782392438346865
0.422,-0.1091314772731086
0.423,-0.11023530241374324
0.424,-0.11112818460900101
0.425,-0.11180339887498948
0.426,-0.1122547302512118
0.427,-0.11247649234827323
0.428,-0.11246354458372693
0.429,-0.11221130806070505
0.43,-0.11171578004739764
0.431,-0.11097354701896282
0.432,-0.10998179622707244
0.433,-0.10873832576600591
0.434,-0.1072415531079949
0.435,-0.10549052208437912
0.436,-0.10348490829305484
0.437,-0.10122502291666524
0.438,-0.09871181493999487
0.439,-0.09594687175906805
0.44,-0.09293241817851655
0.441,-0.08967131379784629
0.442,-0.08616704879130961
0.443,-0.0824237380901448
0.444,-0.07844611397998606
0.445,-0.07423951713025263
0.446,-0.06980988607629403
0.447,-0.06516374517898219
0.448,-0.060308191090294005
0.449,-0.0552508777572167
0.45,-0.0500000000000001
0.451,-0.04456427570440373
0.452,-0.03895292667109315
0.453,-0.03317565816874838
0.454,-0.027242637240736084
0.455,-0.02116446981836155
0.456,-0.014952176696748448
0.457,-0.008617168432285723
0.458,-0.00217121922332162
0.459,0.004373560161617308
0.46,0.011004750341392373
0.461,0.017709652096638717
0.462,0.024475315889928184
0.463,0.03128857205875442
0.464,0.03813606160666118
0.465,0.04500426751629676
0.466,0.05187954650683167
0.467,0.05874816115702802
0.468,0.065596312314287
0.46900000000000003,0.07241017170926381
0.47000000000000003,0.07917591469507257
0.47100000000000003,0.08587975302976651
0.47200000000000003,0.09250796762063333
0.47300000000000003,0.09904694114890804
0.47400000000000003,0.10548319049377351
0.47500000000000003,0.11180339887498937
0.47600000000000003,0.11799444763416775
0.47700000000000004,0.12404344757558043
0.47800000000000004,0.12993776978847246
0.47900000000000004,0.13566507587411278
0.48,0.14121334750228576
0.481,0.146570915223581
0.482,0.15172648646567038
0.483,0.15666917264379512
0.484,0.16138851531786746
0.485,0.16587451133096626
0.486,0.1701176368665322
0.487,0.17410887036425776
0.488,0.17783971423750689
0.489,0.18130221533807764
0.49,0.1844889841172494
0.491,0.18739321243529478
0.492,0.1900086899750117
0.493,0.19232981921830794
0.494,0.1943516289484557
0.495,0.19606978624431093
0.496,0.19748060693655467
0.497,0.19858106449985274
0.498,0.19936879735873175
0.499,0.19984211458893175
0.5,0.2
0.501,0.19984211458893175
0.502,0.19936879735873178
0.503,0.1985810644998528
0.504,0.19748060693655473
0.505,0.19606978624431098
0.506,0.19435162894845578
0.507,0.19232981921830802
0.508,0.1900086899750118
0.509,0.1873932124352949
0.51,0.1844889841172495
0.511,0.18130221533807778
0.512,0.177839714237507
0.513,0.17410887036425787
0.514,0.17011763686653236
0.515,0.16587451133096645
0.516,0.16138851531786766
0.517,0.15666917264379532
0.518,0.1517264864656706
0.519,0.14657091522358123
0.52,0.14121334750228598
0.521,0.1356650758741126
0.522,0.12993776978847227
0.523,0.12404344757558025
0.524,0.11799444763416801
0.525,0.11180339887498962
0.526,0.1054831904937733
0.527,0.09904694114890783
0.528,0.09250796762063312
0.529,0.0858797530297663
0.53,0.07917591469507235
0.531,0.07241017170926359
0.532,0.06559631231428678
0.533,0.058748161157028286
0.534,0.05187954650683195
0.535,0.04500426751629655
0.536,0.038136061606660956
0.537,0.03128857205875421
0.538,0.02447531588992797
0.539,0.017709652096638502
0.54,0.011004750341392158
0.541,0.0043735601616171
0.542,-0.0021712192233213704
0.543,-0.008617168432285487
0.544,-0.014952176696748656
0.545,-0.021164469818361745
0.546,-0.027242637240736278
0.547,-0.03317565816874857
0.548,-0.038952926671093326
0.549,-0.044564275704403904
0.55,-0.050000000000000266
0.551,-0.05525087775721686
0.552,-0.06030819109029381
0.553,-0.06516374517898199
0.554,-0.06980988607629417
0.555,-0.07423951713025276
0.556,-0.07844611397998619
0.557,-0.08242373809014493
0.558,-0.08616704879130972
0.559,-0.08967131379784642
0.56,-0.09293241817851663
0.561,-0.09594687175906795
0.562,-0.09871181493999476
0.5630000000000001,-0.10122502291666531
0.5640000000000001,-0.10348490829305491
0.5650000000000001,-0.10549052208437919
0.5660000000000001,-0.10724155310799492
0.5670000000000001,-0.10873832576600596
0.5680000000000001,-0.10998179622707246
0.5690000000000001,-0.11097354701896285
0.5700000000000001,-0.11171578004739761
0.5710000000000001,-0.11221130806070503
0.5720000000000001,-0.11246354458372693
0.5730000000000001,-0.11247649234827323
0.5740000000000001,-0.11225473025121178
0.5750000000000001,-0.11180339887498947
0.5760000000000001,-0.11112818460900098
0.577,-0.11023530241374337
0.578,-0.10913147727310873
0.579,-0.1078239243834688
0.58,-0.10632032813137633
0.581,-0.1046288199147552
0.582,-0.10275795486535212
0.583,-0.10071668753297985
0.584,-0.09851434659468411
0.585,-0.09616060865440712
0.586,-0.0936654712009991
0.587,-0.0910392247945256
0.588,-0.08829242455274966
0.589,-0.08543586101140604
0.59,-0.08248053043344154
0.591,-0.07943760464375954
0.592,-0.07631840046717682
0.593,-0.07313434884827422
0.594,-0.0698969637325935
0.595,-0.06661781078921004
0.596,-0.06330847605507024
0.597,-0.0599805345816566
0.598,-0.05664551916449701
0.599,-0.053314889235793944
0.6,-0.050000000000000086
0.601,-0.04671207189151773
0.602,-0.04346216043284816
0.603,-0.04026112657046618
0.604,-0.03711960756445457
0.605,-0.03404798850648685
0.606,-0.031056374539127816
0.607,-0.028154563847603772
0.608,-0.025352021493204008
0.609,-0.022657854155306592
0.61,-0.02008078584668402
0.611,-0.01762913466424261
0.612,-0.01531079063469104
0.613,-0.013133194711821658
0.614,-0.011103318979139493
0.615,-0.009227648108476816
0.616,-0.00751216212202066
0.617,-0.00596232050183769
0.618,-0.004583047687533148
0.619,-0.003378719999127089
0.62,-0.0023531540185846717
0.621,-0.001509596459705373
0.622,-0.0008507155522700233
0.623,-0.0003785939624717516
0.624,-9.472326772824724e-05
0.625,0.0
0.626,-9.472326772823336e-05
0.627,-0.00037859396247172383
0.628,-0.0008507155522700094
0.629,-0.0015095964597053452
0.63,-0.00235315401858463
0.631,-0.003378719999127061
0.632,-0.004583047687533079
0.633,-0.005962320501837606
0.634,-0.007512162122020591
0.635,-0.009227648108476733
0.636,-0.011103318979139395
0.637,-0.013133194711821422
0.638,-0.01531079063469093
0.639,-0.0176291346642425
0.64,-0.020080785846684074
0.641,-0.022657854155306453
0.642,-0.025352021493204063
0.643,-0.028154563847603634
0.644,-0.031056374539127463
0.645,-0.034047988506486715
0.646,-0.0371196075644542
0.647,-0.04026112657046603
0.648,-0.04346216043284778
0.649,-0.04671207189151779
0.65,-0.04999999999999992
0.651,-0.05331488923579403
0.652,-0.05664551916449685
0.653,-0.0599805345816562
0.654,-0.06330847605507006
0.655,-0.06661781078920964
0.656,-0.06989696373259337
0.657,-0.07313434884827384
0.658,-0.0763184004671769
0.659,-0.07943760464375939
0.66,-0.08248053043344161
0.661,-0.0854358610114059
0.662,-0.08829242455274972
0.663,-0.09103922479452546
0.664,-0.0936654712009988
0.665,-0.09616060865440701
0.666,-0.09851434659468383
0.667,-0.10071668753297991
0.668,-0.10275795486535204
0.669,-0.10462881991475523
0.67,-0.10632032813137625
0.671,-0.10782392438346883
0.672,-0.10913147727310868
0.673,-0.11023530241374324
0.674,-0.11112818460900104
0.675,-0.11180339887498948
0.676,-0.11225473025121181
0.677,-0.11247649234827323
0.678,-0.11246354458372693
0.679,-0.11221130806070503
0.68,-0.11171578004739756
0.681,-0.11097354701896277
0.682,-0.10998179622707244
0.683,-0.10873832576600583
0.684,-0.10724155310799491
0.685,-0.10549052208437901
0.686,-0.10348490829305487
0.687,-0.10122502291666509
0.6880000000000001,-0.0987118149399947
0.6890000000000001,-0.09594687175906767
0.6900000000000001,-0.09293241817851636
0.6910000000000001,-0.08967131379784633
0.6920000000000001,-0.08616704879130938
0.6930000000000001,-0.08242373809014486
0.6940000000000001,-0.07844611397998581
0.6950000000000001,-0.07423951713025267
0.6960000000000001,-0.06980988607629374
0.6970000000000001,-0.06516374517898191
0.6980000000000001,-0.06030819109029335
0.6990000000000001,-0.05525087775721639
